9.78E-01,9.26E-01,6.81E-01,2.45E-01,1.54E-01,1.91E-01,1.52E-01,8.58E-02,5.88E-02,4.90E-02,4.41E-02,6.13E-02,6.62E-02,6.13E-02,4.90E-02,7.35E-02,6.13E-02,6.13E-02,6.62E-02,6.86E-02,9.56E-02,7.60E-02,9.31E-02,1.05E-01,1.15E-01,1.03E-01,1.18E-01,1.25E-01,1.42E-01,1.27E-01,1.52E-01,1.45E-01,1.64E-01,1.45E-01,1.59E-01,1.52E-01,1.54E-01,1.42E-01,1.52E-01,1.52E-01,1.47E-01,1.32E-01,1.27E-01,1.35E-01,1.37E-01,1.13E-01,1.08E-01,1.05E-01,1.08E-01,9.80E-02,9.31E-02,1.03E-01,1.00E-01,1.05E-01,1.03E-01,1.18E-01,1.05E-01,1.23E-01,1.27E-01,1.42E-01,1.47E-01,1.45E-01,1.74E-01,2.30E-01,2.38E-01,2.48E-01,2.30E-01,2.25E-01,1.99E-01,1.76E-01,1.32E-01,1.25E-01,1.18E-01,1.23E-01,1.13E-01,1.30E-01,1.15E-01,8.33E-02,0.00E+00,6.62E-02,3.06E-01,6.13E-01,8.60E-01,1.00E+00,9.58E-01,7.45E-01,3.04E-01,1.64E-01,2.06E-01,1.64E-01,1.03E-01,9.56E-02,9.07E-02,1.00E-01,9.56E-02,9.80E-02,9.31E-02,9.80E-02,9.56E-02,1.13E-01,0.00E+00,0.00E+00,0.00E+00,0.00E+00,0.00E+00,0.00E+00,0.00E+00,0.00E+00,0.00E+00,0.00E+00,0.00E+00,0.00E+00,0.00E+00,0.00E+00,0.00E+00,0.00E+00,0.00E+00,0.00E+00,0.00E+00,0.00E+00,0.00E+00,0.00E+00,0.00E+00,0.00E+00,0.00E+00,0.00E+00,0.00E+00,0.00E+00,0.00E+00,0.00E+00,0.00E+00,0.00E+00,0.00E+00,0.00E+00,0.00E+00,0.00E+00,0.00E+00,0.00E+00,0.00E+00,0.00E+00,0.00E+00,0.00E+00,0.00E+00,0.00E+00,0.00E+00,0.00E+00,0.00E+00,0.00E+00,0.00E+00,0.00E+00,0.00E+00,0.00E+00,0.00E+00,0.00E+00,0.00E+00,0.00E+00,0.00E+00,0.00E+00,0.00E+00,0.00E+00,0.00E+00,0.00E+00,0.00E+00,0.00E+00,0.00E+00,0.00E+00,0.00E+00,0.00E+00,0.00E+00,0.00E+00,0.00E+00,0.00E+00,0.00E+00,0.00E+00,0.00E+00,0.00E+00,0.00E+00,0.00E+00,0.00E+00,0.00E+00,0.00E+00,0.00E+00,0.00E+00,0.00E+00,0.00E+00,0.00E+00,0.00E+00,0.00E+00
9.60E-01,8.63E-01,4.62E-01,1.97E-01,9.40E-02,1.25E-01,9.97E-02,8.83E-02,7.41E-02,8.26E-02,7.41E-02,6.27E-02,6.55E-02,6.55E-02,6.27E-02,7.69E-02,7.12E-02,8.26E-02,9.12E-02,9.69E-02,8.26E-02,8.26E-02,9.12E-02,1.05E-01,1.23E-01,1.48E-01,1.82E-01,1.94E-01,2.14E-01,2.08E-01,2.22E-01,2.54E-01,2.71E-01,2.88E-01,2.85E-01,2.93E-01,2.56E-01,2.48E-01,1.88E-01,1.45E-01,1.08E-01,8.26E-02,7.98E-02,7.41E-02,1.42E-02,1.14E-02,6.27E-02,5.13E-02,5.70E-02,4.84E-02,2.85E-02,3.13E-02,7.69E-02,2.56E-02,2.85E-02,3.70E-02,9.40E-02,8.55E-02,3.99E-02,5.98E-02,7.41E-02,7.98E-02,9.12E-02,9.97E-02,1.08E-01,8.83E-02,9.12E-02,6.55E-02,8.55E-02,8.83E-02,7.69E-02,8.26E-02,9.69E-02,9.97E-02,1.34E-01,1.03E-01,3.99E-02,6.55E-02,7.41E-02,8.26E-02,8.55E-02,5.70E-02,4.56E-02,1.03E-01,3.99E-02,1.14E-02,1.71E-02,3.13E-02,5.70E-03,8.55E-03,3.13E-02,5.13E-02,5.70E-02,8.83E-02,6.55E-02,1.14E-02,5.70E-02,3.99E-02,3.99E-02,2.56E-02,2.85E-03,1.99E-02,2.56E-02,1.14E-02,2.85E-02,1.99E-02,2.28E-02,3.42E-02,1.42E-02,5.13E-02,6.84E-02,1.40E-01,2.88E-01,5.27E-01,7.78E-01,1.00E+00,8.89E-01,4.93E-01,1.91E-01,8.83E-02,6.27E-02,3.42E-02,0.00E+00,3.42E-02,1.71E-02,2.85E-03,0.00E+00,4.84E-02,4.84E-02,5.41E-02,4.27E-02,5.41E-02,5.98E-02,6.27E-02,7.12E-02,7.69E-02,9.97E-02,0.00E+00,0.00E+00,0.00E+00,0.00E+00,0.00E+00,0.00E+00,0.00E+00,0.00E+00,0.00E+00,0.00E+00,0.00E+00,0.00E+00,0.00E+00,0.00E+00,0.00E+00,0.00E+00,0.00E+00,0.00E+00,0.00E+00,0.00E+00,0.00E+00,0.00E+00,0.00E+00,0.00E+00,0.00E+00,0.00E+00,0.00E+00,0.00E+00,0.00E+00,0.00E+00,0.00E+00,0.00E+00,0.00E+00,0.00E+00,0.00E+00,0.00E+00,0.00E+00,0.00E+00,0.00E+00,0.00E+00,0.00E+00,0.00E+00,0.00E+00,0.00E+00,0.00E+00,0.00E+00,0.00E+00,0.00E+00,0.00E+00,0.00E+00,0.00E+00
1.00E+00,6.59E-01,1.86E-01,7.03E-02,7.03E-02,5.95E-02,5.68E-02,4.32E-02,5.41E-02,4.59E-02,5.68E-02,4.32E-02,6.76E-02,6.22E-02,7.84E-02,7.30E-02,8.65E-02,8.11E-02,1.08E-01,1.11E-01,1.35E-01,1.35E-01,1.70E-01,1.84E-01,2.16E-01,2.38E-01,2.70E-01,2.86E-01,3.16E-01,3.19E-01,3.32E-01,2.97E-01,2.68E-01,2.16E-01,1.89E-01,1.32E-01,1.19E-01,6.49E-02,6.49E-02,4.32E-02,5.41E-02,3.78E-02,4.32E-02,2.16E-02,4.59E-02,3.51E-02,5.68E-02,3.51E-02,3.78E-02,3.24E-02,4.32E-02,3.78E-02,5.14E-02,2.97E-02,4.86E-02,2.97E-02,5.68E-02,5.14E-02,7.84E-02,6.49E-02,9.46E-02,9.73E-02,1.16E-01,9.46E-02,9.19E-02,6.49E-02,6.76E-02,4.05E-02,4.86E-02,1.89E-02,2.16E-02,8.11E-03,2.97E-02,1.08E-02,2.16E-02,5.41E-03,3.24E-02,1.89E-02,2.16E-02,4.05E-02,2.41E-01,5.89E-01,9.65E-01,5.84E-01,1.22E-01,0.00E+00,3.51E-02,3.51E-02,2.70E-02,2.16E-02,2.97E-02,1.08E-02,3.24E-02,2.16E-02,5.14E-02,0.00E+00,0.00E+00,0.00E+00,0.00E+00,0.00E+00,0.00E+00,0.00E+00,0.00E+00,0.00E+00,0.00E+00,0.00E+00,0.00E+00,0.00E+00,0.00E+00,0.00E+00,0.00E+00,0.00E+00,0.00E+00,0.00E+00,0.00E+00,0.00E+00,0.00E+00,0.00E+00,0.00E+00,0.00E+00,0.00E+00,0.00E+00,0.00E+00,0.00E+00,0.00E+00,0.00E+00,0.00E+00,0.00E+00,0.00E+00,0.00E+00,0.00E+00,0.00E+00,0.00E+00,0.00E+00,0.00E+00,0.00E+00,0.00E+00,0.00E+00,0.00E+00,0.00E+00,0.00E+00,0.00E+00,0.00E+00,0.00E+00,0.00E+00,0.00E+00,0.00E+00,0.00E+00,0.00E+00,0.00E+00,0.00E+00,0.00E+00,0.00E+00,0.00E+00,0.00E+00,0.00E+00,0.00E+00,0.00E+00,0.00E+00,0.00E+00,0.00E+00,0.00E+00,0.00E+00,0.00E+00,0.00E+00,0.00E+00,0.00E+00,0.00E+00,0.00E+00,0.00E+00,0.00E+00,0.00E+00,0.00E+00,0.00E+00,0.00E+00,0.00E+00,0.00E+00,0.00E+00,0.00E+00,0.00E+00,0.00E+00,0.00E+00,0.00E+00,0.00E+00,0.00E+00,0.00E+00,0.00E+00,0.00E+00
9.25E-01,6.66E-01,5.41E-01,2.76E-01,1.96E-01,7.73E-02,7.18E-02,6.08E-02,6.63E-02,5.80E-02,6.35E-02,8.29E-02,8.56E-02,9.39E-02,1.13E-01,1.24E-01,1.41E-01,1.33E-01,1.41E-01,9.12E-02,8.56E-02,7.46E-02,7.18E-02,8.01E-02,9.67E-02,1.19E-01,1.38E-01,1.41E-01,1.38E-01,1.46E-01,1.10E-01,1.02E-01,6.08E-02,2.76E-02,3.87E-02,1.38E-02,1.10E-02,1.38E-02,3.31E-02,5.52E-03,0.00E+00,5.52E-03,2.21E-02,6.63E-02,8.01E-02,5.80E-02,6.08E-02,5.80E-02,9.94E-02,1.24E-01,1.74E-01,1.96E-01,2.29E-01,2.40E-01,2.65E-01,2.38E-01,2.18E-01,1.99E-01,1.99E-01,1.99E-01,1.71E-01,1.63E-01,1.85E-01,1.96E-01,1.71E-01,1.41E-01,8.56E-02,0.00E+00,5.52E-03,2.76E-03,3.59E-02,4.97E-02,6.35E-02,1.10E-01,1.22E-01,1.38E-01,1.41E-01,1.69E-01,3.90E-01,7.65E-01,1.00E+00,8.54E-01,6.69E-01,4.59E-01,3.20E-01,1.93E-01,1.22E-01,8.01E-02,8.29E-02,7.18E-02,5.80E-02,6.63E-02,8.84E-02,9.67E-02,9.94E-02,1.10E-01,0.00E+00,0.00E+00,0.00E+00,0.00E+00,0.00E+00,0.00E+00,0.00E+00,0.00E+00,0.00E+00,0.00E+00,0.00E+00,0.00E+00,0.00E+00,0.00E+00,0.00E+00,0.00E+00,0.00E+00,0.00E+00,0.00E+00,0.00E+00,0.00E+00,0.00E+00,0.00E+00,0.00E+00,0.00E+00,0.00E+00,0.00E+00,0.00E+00,0.00E+00,0.00E+00,0.00E+00,0.00E+00,0.00E+00,0.00E+00,0.00E+00,0.00E+00,0.00E+00,0.00E+00,0.00E+00,0.00E+00,0.00E+00,0.00E+00,0.00E+00,0.00E+00,0.00E+00,0.00E+00,0.00E+00,0.00E+00,0.00E+00,0.00E+00,0.00E+00,0.00E+00,0.00E+00,0.00E+00,0.00E+00,0.00E+00,0.00E+00,0.00E+00,0.00E+00,0.00E+00,0.00E+00,0.00E+00,0.00E+00,0.00E+00,0.00E+00,0.00E+00,0.00E+00,0.00E+00,0.00E+00,0.00E+00,0.00E+00,0.00E+00,0.00E+00,0.00E+00,0.00E+00,0.00E+00,0.00E+00,0.00E+00,0.00E+00,0.00E+00,0.00E+00,0.00E+00,0.00E+00,0.00E+00,0.00E+00,0.00E+00,0.00E+00,0.00E+00,0.00E+00,0.00E+00,0.00E+00,0.00E+00
9.67E-01,1.00E+00,8.31E-01,5.87E-01,3.57E-01,2.49E-01,1.46E-01,8.92E-02,1.17E-01,1.50E-01,1.31E-01,1.22E-01,1.41E-01,1.60E-01,1.50E-01,1.46E-01,1.36E-01,1.69E-01,1.78E-01,1.74E-01,1.83E-01,2.02E-01,1.88E-01,1.64E-01,1.88E-01,2.16E-01,2.16E-01,2.02E-01,2.11E-01,2.30E-01,2.16E-01,2.30E-01,2.39E-01,2.68E-01,2.54E-01,2.30E-01,2.21E-01,2.25E-01,2.11E-01,1.74E-01,1.50E-01,1.41E-01,1.08E-01,7.51E-02,6.10E-02,7.04E-02,6.10E-02,5.16E-02,3.29E-02,7.04E-02,4.23E-02,1.88E-02,3.29E-02,3.29E-02,3.29E-02,2.82E-02,1.88E-02,1.88E-02,2.35E-02,0.00E+00,9.39E-03,1.41E-02,2.82E-02,0.00E+00,0.00E+00,4.23E-02,2.35E-02,9.39E-03,2.35E-02,2.82E-02,3.76E-02,1.88E-02,1.41E-02,3.76E-02,4.23E-02,2.35E-02,1.41E-02,3.76E-02,4.23E-02,1.41E-02,3.76E-02,5.16E-02,4.69E-02,3.76E-02,3.76E-02,5.63E-02,5.63E-02,3.29E-02,3.29E-02,6.57E-02,5.63E-02,2.82E-02,4.69E-02,5.63E-02,6.57E-02,4.23E-02,6.10E-02,1.17E-01,1.22E-01,9.86E-02,9.86E-02,1.13E-01,1.08E-01,9.39E-02,1.03E-01,1.08E-01,7.51E-02,4.23E-02,4.69E-02,6.57E-02,7.04E-02,6.57E-02,1.03E-01,2.35E-01,4.98E-01,7.46E-01,8.83E-01,9.53E-01,9.06E-01,6.81E-01,4.32E-01,2.49E-01,1.46E-01,6.10E-02,6.57E-02,1.03E-01,1.03E-01,8.45E-02,9.39E-02,1.17E-01,1.22E-01,1.08E-01,1.13E-01,1.46E-01,1.55E-01,1.17E-01,1.41E-01,1.64E-01,1.69E-01,1.64E-01,0.00E+00,0.00E+00,0.00E+00,0.00E+00,0.00E+00,0.00E+00,0.00E+00,0.00E+00,0.00E+00,0.00E+00,0.00E+00,0.00E+00,0.00E+00,0.00E+00,0.00E+00,0.00E+00,0.00E+00,0.00E+00,0.00E+00,0.00E+00,0.00E+00,0.00E+00,0.00E+00,0.00E+00,0.00E+00,0.00E+00,0.00E+00,0.00E+00,0.00E+00,0.00E+00,0.00E+00,0.00E+00,0.00E+00,0.00E+00,0.00E+00,0.00E+00,0.00E+00,0.00E+00,0.00E+00,0.00E+00,0.00E+00,0.00E+00,0.00E+00,0.00E+00,0.00E+00,0.00E+00,0.00E+00,0.00E+00
9.867374300956726074e-01,9.628646969795227051e-01,8.090185523033142090e-01,3.580901920795440674e-01,8.222811669111251831e-02,1.618037074804306030e-01,1.379310339689254761e-01,7.957559823989868164e-02,3.183024004101753235e-02,6.366048008203506470e-02,6.631299853324890137e-02,7.957559823989868164e-02,5.835543945431709290e-02,7.692307978868484497e-02,7.161803543567657471e-02,7.427055388689041138e-02,6.896551698446273804e-02,7.957559823989868164e-02,8.222811669111251831e-02,7.957559823989868164e-02,7.161803543567657471e-02,9.549071639776229858e-02,8.488063514232635498e-02,1.114058345556259155e-01,8.488063514232635498e-02,1.061007976531982422e-01,1.220159158110618591e-01,1.167108789086341858e-01,1.167108789086341858e-01,1.352785080671310425e-01,1.352785080671310425e-01,1.405835598707199097e-01,1.273209601640701294e-01,1.591511964797973633e-01,1.538461595773696899e-01,1.511936336755752563e-01,1.246684342622756958e-01,1.511936336755752563e-01,1.379310339689254761e-01,1.352785080671310425e-01,1.220159158110618591e-01,1.352785080671310425e-01,1.352785080671310425e-01,1.167108789086341858e-01,1.114058345556259155e-01,1.220159158110618591e-01,1.087533161044120789e-01,9.814323484897613525e-02,9.018567949533462524e-02,8.753315359354019165e-02,9.814323484897613525e-02,7.427055388689041138e-02,7.427055388689041138e-02,9.018567949533462524e-02,9.549071639776229858e-02,1.007957533001899719e-01,8.222811669111251831e-02,1.140583530068397522e-01,1.273209601640701294e-01,1.352785080671310425e-01,1.405835598707199097e-01,1.803713589906692505e-01,2.068965584039688110e-01,2.307692319154739380e-01,2.068965584039688110e-01,2.254641950130462646e-01,2.095490694046020508e-01,1.883289068937301636e-01,1.724137961864471436e-01,1.326259970664978027e-01,1.114058345556259155e-01,8.753315359354019165e-02,6.366048008203506470e-02,7.957559823989868164e-02,8.222811669111251831e-02,7.692307978868484497e-02,5.039787665009498596e-02,2.652519848197698593e-03,0.000000000000000000e+00,2.413793057203292847e-01,5.755968093872070312e-01,8.912466764450073242e-01,1.000000000000000000e+00,9.389920234680175781e-01,7.029177546501159668e-01,2.334217578172683716e-01,8.222811669111251831e-02,1.485411077737808228e-01,9.283819794654846191e-02,5.039787665009498596e-02,3.448275849223136902e-02,3.183024004101753235e-02,2.917771972715854645e-02,3.713527694344520569e-02,4.509283974766731262e-02,3.978779911994934082e-02,3.713527694344520569e-02,4.774535819888114929e-02,0.000000000000000000e+00,0.000000000000000000e+00,0.000000000000000000e+00,0.000000000000000000e+00,0.000000000000000000e+00,0.000000000000000000e+00,0.000000000000000000e+00,0.000000000000000000e+00,0.000000000000000000e+00,0.000000000000000000e+00,0.000000000000000000e+00,0.000000000000000000e+00,0.000000000000000000e+00,0.000000000000000000e+00,0.000000000000000000e+00,0.000000000000000000e+00,0.000000000000000000e+00,0.000000000000000000e+00,0.000000000000000000e+00,0.000000000000000000e+00,0.000000000000000000e+00,0.000000000000000000e+00,0.000000000000000000e+00,0.000000000000000000e+00,0.000000000000000000e+00,0.000000000000000000e+00,0.000000000000000000e+00,0.000000000000000000e+00,0.000000000000000000e+00,0.000000000000000000e+00,0.000000000000000000e+00,0.000000000000000000e+00,0.000000000000000000e+00,0.000000000000000000e+00,0.000000000000000000e+00,0.000000000000000000e+00,0.000000000000000000e+00,0.000000000000000000e+00,0.000000000000000000e+00,0.000000000000000000e+00,0.000000000000000000e+00,0.000000000000000000e+00,0.000000000000000000e+00,0.000000000000000000e+00,0.000000000000000000e+00,0.000000000000000000e+00,0.000000000000000000e+00,0.000000000000000000e+00,0.000000000000000000e+00,0.000000000000000000e+00,0.000000000000000000e+00,0.000000000000000000e+00,0.000000000000000000e+00,0.000000000000000000e+00,0.000000000000000000e+00,0.000000000000000000e+00,0.000000000000000000e+00,0.000000000000000000e+00,0.000000000000000000e+00,0.000000000000000000e+00,0.000000000000000000e+00,0.000000000000000000e+00,0.000000000000000000e+00,0.000000000000000000e+00,0.000000000000000000e+00,0.000000000000000000e+00,0.000000000000000000e+00,0.000000000000000000e+00,0.000000000000000000e+00,0.000000000000000000e+00,0.000000000000000000e+00,0.000000000000000000e+00,0.000000000000000000e+00,0.000000000000000000e+00,0.000000000000000000e+00,0.000000000000000000e+00,0.000000000000000000e+00,0.000000000000000000e+00,0.000000000000000000e+00,0.000000000000000000e+00,0.000000000000000000e+00,0.000000000000000000e+00,0.000000000000000000e+00,0.000000000000000000e+00,0.000000000000000000e+00,0.000000000000000000e+00,0.000000000000000000e+00,0.000000000000000000e+00,0.000000000000000000e+00,0.000000000000000000e+00
